Height (m)  50th percentile particle concentration (-)  84th percentile particle concentration (-)  16th percentile particle concentration (-)
    0.500             0.29953E-02                                  0.12944E-02                                  0.33105E-02
    0.510             0.29459E-02                                  0.12610E-02                                  0.32725E-02
    0.520             0.28983E-02                                  0.12290E-02                                  0.32356E-02
    0.530             0.28523E-02                                  0.11985E-02                                  0.31998E-02
    0.540             0.28079E-02                                  0.11692E-02                                  0.31651E-02
    0.550             0.27650E-02                                  0.11412E-02                                  0.31314E-02
    0.560             0.27234E-02                                  0.11143E-02                                  0.30986E-02
    0.570             0.26832E-02                                  0.10885E-02                                  0.30668E-02
    0.580             0.26443E-02                                  0.10637E-02                                  0.30358E-02
    0.590             0.26066E-02                                  0.10399E-02                                  0.30057E-02
    0.600             0.25701E-02                                  0.10170E-02                                  0.29763E-02
    0.610             0.25346E-02                                  0.99502E-03                                  0.29478E-02
    0.620             0.25003E-02                                  0.97382E-03                                  0.29199E-02
    0.630             0.24669E-02                                  0.95339E-03                                  0.28928E-02
    0.640             0.24344E-02                                  0.93371E-03                                  0.28663E-02
    0.650             0.24029E-02                                  0.91472E-03                                  0.28405E-02
    0.660             0.23723E-02                                  0.89639E-03                                  0.28152E-02
    0.670             0.23425E-02                                  0.87870E-03                                  0.27906E-02
    0.680             0.23135E-02                                  0.86161E-03                                  0.27666E-02
    0.690             0.22853E-02                                  0.84509E-03                                  0.27431E-02
    0.700             0.22578E-02                                  0.82911E-03                                  0.27202E-02
    0.710             0.22311E-02                                  0.81365E-03                                  0.26977E-02
    0.720             0.22050E-02                                  0.79869E-03                                  0.26758E-02
    0.730             0.21796E-02                                  0.78421E-03                                  0.26543E-02
    0.740             0.21548E-02                                  0.77017E-03                                  0.26333E-02
    0.750             0.21306E-02                                  0.75657E-03                                  0.26128E-02
    0.760             0.21070E-02                                  0.74337E-03                                  0.25926E-02
    0.770             0.20840E-02                                  0.73058E-03                                  0.25729E-02
    0.780             0.20615E-02                                  0.71816E-03                                  0.25536E-02
    0.790             0.20395E-02                                  0.70611E-03                                  0.25347E-02
    0.800             0.20180E-02                                  0.69440E-03                                  0.25161E-02
    0.810             0.19971E-02                                  0.68303E-03                                  0.24979E-02
    0.820             0.19766E-02                                  0.67198E-03                                  0.24801E-02
    0.830             0.19565E-02                                  0.66124E-03                                  0.24626E-02
    0.840             0.19369E-02                                  0.65079E-03                                  0.24454E-02
    0.850             0.19177E-02                                  0.64062E-03                                  0.24286E-02
    0.860             0.18989E-02                                  0.63073E-03                                  0.24120E-02
    0.870             0.18805E-02                                  0.62110E-03                                  0.23958E-02
    0.880             0.18625E-02                                  0.61173E-03                                  0.23798E-02
    0.890             0.18449E-02                                  0.60259E-03                                  0.23642E-02
    0.900             0.18277E-02                                  0.59370E-03                                  0.23488E-02
    0.910             0.18107E-02                                  0.58502E-03                                  0.23337E-02
    0.920             0.17942E-02                                  0.57657E-03                                  0.23188E-02
    0.930             0.17779E-02                                  0.56832E-03                                  0.23042E-02
    0.940             0.17620E-02                                  0.56028E-03                                  0.22899E-02
    0.950             0.17463E-02                                  0.55244E-03                                  0.22757E-02
    0.960             0.17310E-02                                  0.54478E-03                                  0.22619E-02
    0.970             0.17160E-02                                  0.53730E-03                                  0.22482E-02
    0.980             0.17012E-02                                  0.53001E-03                                  0.22348E-02
    0.990             0.16867E-02                                  0.52288E-03                                  0.22215E-02
    1.000             0.16725E-02                                  0.51591E-03                                  0.22085E-02
    1.010             0.16586E-02                                  0.50911E-03                                  0.21957E-02
    1.020             0.16449E-02                                  0.50246E-03                                  0.21831E-02
    1.030             0.16314E-02                                  0.49596E-03                                  0.21707E-02
    1.040             0.16182E-02                                  0.48960E-03                                  0.21585E-02
    1.050             0.16052E-02                                  0.48339E-03                                  0.21464E-02
    1.060             0.15924E-02                                  0.47731E-03                                  0.21346E-02
    1.070             0.15799E-02                                  0.47136E-03                                  0.21229E-02
    1.080             0.15675E-02                                  0.46554E-03                                  0.21114E-02
    1.090             0.15554E-02                                  0.45984E-03                                  0.21000E-02
    1.100             0.15435E-02                                  0.45426E-03                                  0.20888E-02
    1.110             0.15318E-02                                  0.44880E-03                                  0.20778E-02
    1.120             0.15202E-02                                  0.44345E-03                                  0.20670E-02
    1.130             0.15089E-02                                  0.43821E-03                                  0.20562E-02
    1.140             0.14977E-02                                  0.43307E-03                                  0.20457E-02
    1.150             0.14867E-02                                  0.42804E-03                                  0.20353E-02
    1.160             0.14759E-02                                  0.42311E-03                                  0.20250E-02
    1.170             0.14653E-02                                  0.41828E-03                                  0.20148E-02
    1.180             0.14548E-02                                  0.41354E-03                                  0.20048E-02
    1.190             0.14445E-02                                  0.40890E-03                                  0.19950E-02
    1.200             0.14343E-02                                  0.40434E-03                                  0.19852E-02
    1.210             0.14243E-02                                  0.39987E-03                                  0.19756E-02
    1.220             0.14145E-02                                  0.39549E-03                                  0.19661E-02
    1.230             0.14048E-02                                  0.39118E-03                                  0.19568E-02
    1.240             0.13952E-02                                  0.38696E-03                                  0.19475E-02
    1.250             0.13858E-02                                  0.38282E-03                                  0.19384E-02
    1.260             0.13765E-02                                  0.37875E-03                                  0.19294E-02
    1.270             0.13674E-02                                  0.37476E-03                                  0.19205E-02
    1.280             0.13584E-02                                  0.37084E-03                                  0.19117E-02
    1.290             0.13495E-02                                  0.36698E-03                                  0.19030E-02
    1.300             0.13407E-02                                  0.36320E-03                                  0.18944E-02
    1.310             0.13321E-02                                  0.35949E-03                                  0.18859E-02
    1.320             0.13235E-02                                  0.35584E-03                                  0.18776E-02
    1.330             0.13151E-02                                  0.35225E-03                                  0.18693E-02
    1.340             0.13069E-02                                  0.34872E-03                                  0.18611E-02
    1.350             0.12987E-02                                  0.34526E-03                                  0.18530E-02
    1.360             0.12906E-02                                  0.34185E-03                                  0.18451E-02
    1.370             0.12827E-02                                  0.33851E-03                                  0.18372E-02
    1.380             0.12748E-02                                  0.33521E-03                                  0.18294E-02
    1.390             0.12671E-02                                  0.33198E-03                                  0.18216E-02
    1.400             0.12594E-02                                  0.32879E-03                                  0.18140E-02
    1.410             0.12519E-02                                  0.32566E-03                                  0.18065E-02
    1.420             0.12444E-02                                  0.32258E-03                                  0.17990E-02
    1.430             0.12371E-02                                  0.31955E-03                                  0.17917E-02
    1.440             0.12298E-02                                  0.31657E-03                                  0.17844E-02
    1.450             0.12226E-02                                  0.31364E-03                                  0.17771E-02
    1.460             0.12156E-02                                  0.31075E-03                                  0.17700E-02
    1.470             0.12086E-02                                  0.30791E-03                                  0.17630E-02
    1.480             0.12017E-02                                  0.30511E-03                                  0.17560E-02
    1.490             0.11949E-02                                  0.30236E-03                                  0.17491E-02
    1.500             0.11881E-02                                  0.29964E-03                                  0.17422E-02
    1.510             0.11815E-02                                  0.29697E-03                                  0.17355E-02
    1.520             0.11749E-02                                  0.29435E-03                                  0.17288E-02
    1.530             0.11684E-02                                  0.29176E-03                                  0.17221E-02
    1.540             0.11620E-02                                  0.28921E-03                                  0.17156E-02
    1.550             0.11557E-02                                  0.28669E-03                                  0.17091E-02
    1.560             0.11494E-02                                  0.28422E-03                                  0.17027E-02
    1.570             0.11432E-02                                  0.28178E-03                                  0.16963E-02
    1.580             0.11371E-02                                  0.27938E-03                                  0.16900E-02
    1.590             0.11311E-02                                  0.27701E-03                                  0.16838E-02
    1.600             0.11251E-02                                  0.27468E-03                                  0.16776E-02
    1.610             0.11192E-02                                  0.27238E-03                                  0.16715E-02
    1.620             0.11133E-02                                  0.27011E-03                                  0.16655E-02
    1.630             0.11075E-02                                  0.26787E-03                                  0.16595E-02
    1.640             0.11018E-02                                  0.26567E-03                                  0.16535E-02
    1.650             0.10962E-02                                  0.26350E-03                                  0.16477E-02
    1.660             0.10906E-02                                  0.26136E-03                                  0.16418E-02
    1.670             0.10851E-02                                  0.25924E-03                                  0.16361E-02
    1.680             0.10796E-02                                  0.25716E-03                                  0.16304E-02
    1.690             0.10742E-02                                  0.25511E-03                                  0.16247E-02
    1.700             0.10689E-02                                  0.25308E-03                                  0.16191E-02
    1.710             0.10636E-02                                  0.25108E-03                                  0.16135E-02
    1.720             0.10583E-02                                  0.24911E-03                                  0.16080E-02
    1.730             0.10532E-02                                  0.24716E-03                                  0.16026E-02
    1.740             0.10480E-02                                  0.24524E-03                                  0.15972E-02
    1.750             0.10430E-02                                  0.24335E-03                                  0.15918E-02
    1.760             0.10380E-02                                  0.24148E-03                                  0.15865E-02
    1.770             0.10330E-02                                  0.23963E-03                                  0.15813E-02
    1.780             0.10281E-02                                  0.23781E-03                                  0.15761E-02
    1.790             0.10232E-02                                  0.23601E-03                                  0.15709E-02
    1.800             0.10184E-02                                  0.23424E-03                                  0.15658E-02
    1.810             0.10136E-02                                  0.23249E-03                                  0.15607E-02
    1.820             0.10089E-02                                  0.23076E-03                                  0.15557E-02
    1.830             0.10043E-02                                  0.22905E-03                                  0.15507E-02
    1.840             0.99963E-03                                  0.22737E-03                                  0.15457E-02
    1.850             0.99505E-03                                  0.22570E-03                                  0.15408E-02
    1.860             0.99052E-03                                  0.22406E-03                                  0.15360E-02
    1.870             0.98604E-03                                  0.22243E-03                                  0.15312E-02
    1.880             0.98159E-03                                  0.22083E-03                                  0.15264E-02
    1.890             0.97719E-03                                  0.21925E-03                                  0.15216E-02
    1.900             0.97284E-03                                  0.21768E-03                                  0.15169E-02
    1.910             0.96852E-03                                  0.21614E-03                                  0.15123E-02
    1.920             0.96425E-03                                  0.21461E-03                                  0.15077E-02
    1.930             0.96001E-03                                  0.21310E-03                                  0.15031E-02
    1.940             0.95582E-03                                  0.21161E-03                                  0.14985E-02
    1.950             0.95167E-03                                  0.21014E-03                                  0.14940E-02
    1.960             0.94755E-03                                  0.20868E-03                                  0.14895E-02
    1.970             0.94348E-03                                  0.20724E-03                                  0.14851E-02
    1.980             0.93944E-03                                  0.20582E-03                                  0.14807E-02
    1.990             0.93544E-03                                  0.20442E-03                                  0.14763E-02
    2.000             0.93147E-03                                  0.20303E-03                                  0.14720E-02
    2.010             0.92754E-03                                  0.20166E-03                                  0.14677E-02
    2.020             0.92365E-03                                  0.20030E-03                                  0.14634E-02
    2.030             0.91979E-03                                  0.19896E-03                                  0.14592E-02
    2.040             0.91597E-03                                  0.19763E-03                                  0.14550E-02
    2.050             0.91218E-03                                  0.19632E-03                                  0.14508E-02
    2.060             0.90843E-03                                  0.19502E-03                                  0.14467E-02
    2.070             0.90470E-03                                  0.19374E-03                                  0.14426E-02
    2.080             0.90101E-03                                  0.19248E-03                                  0.14385E-02
    2.090             0.89736E-03                                  0.19122E-03                                  0.14345E-02
