Height (m)  50th percentile dynamic pressure (Pa)  84th percentile dynamic pressure (Pa)  16th percentile dynamic pressure (Pa)
    0.500              0.9823E+03                             0.1916E+04                             0.1662E+03
    0.510              0.9729E+03                             0.1906E+04                             0.1636E+03
    0.520              0.9637E+03                             0.1897E+04                             0.1611E+03
    0.530              0.9547E+03                             0.1887E+04                             0.1587E+03
    0.540              0.9460E+03                             0.1878E+04                             0.1564E+03
    0.550              0.9376E+03                             0.1869E+04                             0.1541E+03
    0.560              0.9294E+03                             0.1860E+04                             0.1520E+03
    0.570              0.9214E+03                             0.1851E+04                             0.1499E+03
    0.580              0.9137E+03                             0.1843E+04                             0.1480E+03
    0.590              0.9061E+03                             0.1835E+04                             0.1460E+03
    0.600              0.8987E+03                             0.1827E+04                             0.1442E+03
    0.610              0.8915E+03                             0.1819E+04                             0.1424E+03
    0.620              0.8845E+03                             0.1811E+04                             0.1407E+03
    0.630              0.8777E+03                             0.1803E+04                             0.1390E+03
    0.640              0.8710E+03                             0.1796E+04                             0.1374E+03
    0.650              0.8645E+03                             0.1788E+04                             0.1358E+03
    0.660              0.8582E+03                             0.1781E+04                             0.1343E+03
    0.670              0.8520E+03                             0.1774E+04                             0.1329E+03
    0.680              0.8459E+03                             0.1767E+04                             0.1314E+03
    0.690              0.8400E+03                             0.1760E+04                             0.1301E+03
    0.700              0.8342E+03                             0.1754E+04                             0.1287E+03
    0.710              0.8285E+03                             0.1747E+04                             0.1274E+03
    0.720              0.8230E+03                             0.1741E+04                             0.1262E+03
    0.730              0.8175E+03                             0.1734E+04                             0.1250E+03
    0.740              0.8122E+03                             0.1728E+04                             0.1238E+03
    0.750              0.8070E+03                             0.1722E+04                             0.1226E+03
    0.760              0.8019E+03                             0.1716E+04                             0.1215E+03
    0.770              0.7969E+03                             0.1710E+04                             0.1204E+03
    0.780              0.7921E+03                             0.1704E+04                             0.1194E+03
    0.790              0.7873E+03                             0.1698E+04                             0.1183E+03
    0.800              0.7826E+03                             0.1693E+04                             0.1173E+03
    0.810              0.7780E+03                             0.1687E+04                             0.1164E+03
    0.820              0.7734E+03                             0.1682E+04                             0.1154E+03
    0.830              0.7690E+03                             0.1676E+04                             0.1145E+03
    0.840              0.7646E+03                             0.1671E+04                             0.1136E+03
    0.850              0.7604E+03                             0.1666E+04                             0.1127E+03
    0.860              0.7562E+03                             0.1661E+04                             0.1119E+03
    0.870              0.7521E+03                             0.1655E+04                             0.1110E+03
    0.880              0.7480E+03                             0.1650E+04                             0.1102E+03
    0.890              0.7441E+03                             0.1646E+04                             0.1094E+03
    0.900              0.7402E+03                             0.1641E+04                             0.1087E+03
    0.910              0.7363E+03                             0.1636E+04                             0.1079E+03
    0.920              0.7326E+03                             0.1631E+04                             0.1072E+03
    0.930              0.7288E+03                             0.1626E+04                             0.1064E+03
    0.940              0.7252E+03                             0.1622E+04                             0.1057E+03
    0.950              0.7216E+03                             0.1617E+04                             0.1051E+03
    0.960              0.7181E+03                             0.1613E+04                             0.1044E+03
    0.970              0.7146E+03                             0.1608E+04                             0.1037E+03
    0.980              0.7112E+03                             0.1604E+04                             0.1031E+03
    0.990              0.7079E+03                             0.1600E+04                             0.1025E+03
    1.000              0.7046E+03                             0.1595E+04                             0.1018E+03
    1.010              0.7013E+03                             0.1591E+04                             0.1012E+03
    1.020              0.6981E+03                             0.1587E+04                             0.1007E+03
    1.030              0.6950E+03                             0.1583E+04                             0.1001E+03
    1.040              0.6919E+03                             0.1579E+04                             0.9953E+02
    1.050              0.6888E+03                             0.1575E+04                             0.9898E+02
    1.060              0.6858E+03                             0.1571E+04                             0.9844E+02
    1.070              0.6829E+03                             0.1567E+04                             0.9791E+02
    1.080              0.6799E+03                             0.1563E+04                             0.9739E+02
    1.090              0.6771E+03                             0.1559E+04                             0.9689E+02
    1.100              0.6742E+03                             0.1556E+04                             0.9639E+02
    1.110              0.6714E+03                             0.1552E+04                             0.9591E+02
    1.120              0.6687E+03                             0.1548E+04                             0.9543E+02
    1.130              0.6660E+03                             0.1545E+04                             0.9497E+02
    1.140              0.6633E+03                             0.1541E+04                             0.9451E+02
    1.150              0.6606E+03                             0.1538E+04                             0.9406E+02
    1.160              0.6580E+03                             0.1534E+04                             0.9362E+02
    1.170              0.6555E+03                             0.1531E+04                             0.9319E+02
    1.180              0.6529E+03                             0.1527E+04                             0.9277E+02
    1.190              0.6504E+03                             0.1524E+04                             0.9235E+02
    1.200              0.6480E+03                             0.1520E+04                             0.9195E+02
    1.210              0.6455E+03                             0.1517E+04                             0.9155E+02
    1.220              0.6431E+03                             0.1514E+04                             0.9115E+02
    1.230              0.6408E+03                             0.1510E+04                             0.9077E+02
    1.240              0.6384E+03                             0.1507E+04                             0.9039E+02
    1.250              0.6361E+03                             0.1504E+04                             0.9002E+02
    1.260              0.6338E+03                             0.1501E+04                             0.8966E+02
    1.270              0.6316E+03                             0.1498E+04                             0.8930E+02
    1.280              0.6294E+03                             0.1495E+04                             0.8895E+02
    1.290              0.6272E+03                             0.1492E+04                             0.8860E+02
    1.300              0.6250E+03                             0.1489E+04                             0.8827E+02
    1.310              0.6229E+03                             0.1486E+04                             0.8793E+02
    1.320              0.6207E+03                             0.1483E+04                             0.8761E+02
    1.330              0.6187E+03                             0.1480E+04                             0.8728E+02
    1.340              0.6166E+03                             0.1477E+04                             0.8697E+02
    1.350              0.6146E+03                             0.1474E+04                             0.8666E+02
    1.360              0.6125E+03                             0.1471E+04                             0.8635E+02
    1.370              0.6105E+03                             0.1468E+04                             0.8605E+02
    1.380              0.6086E+03                             0.1465E+04                             0.8576E+02
    1.390              0.6066E+03                             0.1463E+04                             0.8547E+02
    1.400              0.6047E+03                             0.1460E+04                             0.8518E+02
    1.410              0.6028E+03                             0.1457E+04                             0.8490E+02
    1.420              0.6009E+03                             0.1454E+04                             0.8463E+02
    1.430              0.5991E+03                             0.1452E+04                             0.8436E+02
    1.440              0.5972E+03                             0.1449E+04                             0.8409E+02
    1.450              0.5954E+03                             0.1446E+04                             0.8383E+02
    1.460              0.5936E+03                             0.1444E+04                             0.8357E+02
    1.470              0.5918E+03                             0.1441E+04                             0.8331E+02
    1.480              0.5901E+03                             0.1439E+04                             0.8306E+02
    1.490              0.5883E+03                             0.1436E+04                             0.8282E+02
    1.500              0.5866E+03                             0.1434E+04                             0.8257E+02
    1.510              0.5849E+03                             0.1431E+04                             0.8234E+02
    1.520              0.5832E+03                             0.1429E+04                             0.8210E+02
    1.530              0.5816E+03                             0.1426E+04                             0.8187E+02
    1.540              0.5799E+03                             0.1424E+04                             0.8164E+02
    1.550              0.5783E+03                             0.1421E+04                             0.8142E+02
    1.560              0.5767E+03                             0.1419E+04                             0.8120E+02
    1.570              0.5751E+03                             0.1417E+04                             0.8098E+02
    1.580              0.5735E+03                             0.1414E+04                             0.8077E+02
    1.590              0.5719E+03                             0.1412E+04                             0.8056E+02
    1.600              0.5704E+03                             0.1410E+04                             0.8035E+02
    1.610              0.5689E+03                             0.1407E+04                             0.8014E+02
    1.620              0.5674E+03                             0.1405E+04                             0.7994E+02
    1.630              0.5659E+03                             0.1403E+04                             0.7974E+02
    1.640              0.5644E+03                             0.1401E+04                             0.7955E+02
    1.650              0.5629E+03                             0.1398E+04                             0.7935E+02
    1.660              0.5614E+03                             0.1396E+04                             0.7916E+02
    1.670              0.5600E+03                             0.1394E+04                             0.7898E+02
    1.680              0.5586E+03                             0.1392E+04                             0.7879E+02
    1.690              0.5571E+03                             0.1390E+04                             0.7861E+02
    1.700              0.5557E+03                             0.1388E+04                             0.7843E+02
    1.710              0.5544E+03                             0.1385E+04                             0.7825E+02
    1.720              0.5530E+03                             0.1383E+04                             0.7808E+02
    1.730              0.5516E+03                             0.1381E+04                             0.7791E+02
    1.740              0.5503E+03                             0.1379E+04                             0.7774E+02
    1.750              0.5489E+03                             0.1377E+04                             0.7757E+02
    1.760              0.5476E+03                             0.1375E+04                             0.7741E+02
    1.770              0.5463E+03                             0.1373E+04                             0.7724E+02
    1.780              0.5450E+03                             0.1371E+04                             0.7708E+02
    1.790              0.5437E+03                             0.1369E+04                             0.7693E+02
    1.800              0.5424E+03                             0.1367E+04                             0.7677E+02
    1.810              0.5412E+03                             0.1365E+04                             0.7662E+02
    1.820              0.5399E+03                             0.1363E+04                             0.7646E+02
    1.830              0.5387E+03                             0.1361E+04                             0.7632E+02
    1.840              0.5374E+03                             0.1359E+04                             0.7617E+02
    1.850              0.5362E+03                             0.1357E+04                             0.7602E+02
    1.860              0.5350E+03                             0.1355E+04                             0.7588E+02
    1.870              0.5338E+03                             0.1354E+04                             0.7574E+02
    1.880              0.5326E+03                             0.1352E+04                             0.7560E+02
    1.890              0.5314E+03                             0.1350E+04                             0.7546E+02
    1.900              0.5303E+03                             0.1348E+04                             0.7532E+02
    1.910              0.5291E+03                             0.1346E+04                             0.7519E+02
    1.920              0.5280E+03                             0.1344E+04                             0.7506E+02
    1.930              0.5268E+03                             0.1343E+04                             0.7493E+02
    1.940              0.5257E+03                             0.1341E+04                             0.7480E+02
    1.950              0.5246E+03                             0.1339E+04                             0.7467E+02
    1.960              0.5235E+03                             0.1337E+04                             0.7454E+02
    1.970              0.5224E+03                             0.1336E+04                             0.7442E+02
    1.980              0.5213E+03                             0.1334E+04                             0.7430E+02
    1.990              0.5202E+03                             0.1332E+04                             0.7418E+02
    2.000              0.5191E+03                             0.1330E+04                             0.7406E+02
    2.010              0.5181E+03                             0.1329E+04                             0.7394E+02
    2.020              0.5170E+03                             0.1327E+04                             0.7382E+02
    2.030              0.5160E+03                             0.1325E+04                             0.7371E+02
    2.040              0.5149E+03                             0.1324E+04                             0.7359E+02
    2.050              0.5139E+03                             0.1322E+04                             0.7348E+02
    2.060              0.5129E+03                             0.1320E+04                             0.7337E+02
    2.070              0.5119E+03                             0.1319E+04                             0.7326E+02
    2.080              0.5108E+03                             0.1317E+04                             0.7315E+02
    2.090              0.5099E+03                             0.1315E+04                             0.7305E+02
    2.100              0.5089E+03                             0.1314E+04                             0.7294E+02
    2.110              0.5079E+03                             0.1312E+04                             0.7284E+02
    2.120              0.5069E+03                             0.1311E+04                             0.7274E+02
    2.130              0.5059E+03                             0.1309E+04                             0.7263E+02
    2.140              0.5050E+03                             0.1307E+04                             0.7253E+02
    2.150              0.5040E+03                             0.1306E+04                             0.7243E+02
    2.160              0.5031E+03                             0.1304E+04                             0.7234E+02
    2.170              0.5021E+03                             0.1303E+04                             0.7224E+02
    2.180              0.5012E+03                             0.1301E+04                             0.7214E+02
    2.190              0.5003E+03                             0.1300E+04                             0.7205E+02
    2.200              0.4994E+03                             0.1298E+04                             0.7196E+02
    2.210              0.4985E+03                             0.1297E+04                             0.7187E+02
    2.220              0.4976E+03                             0.1295E+04                             0.7177E+02
    2.230              0.4967E+03                             0.1294E+04                             0.7168E+02
    2.240              0.4958E+03                             0.1292E+04                             0.7160E+02
    2.250              0.4949E+03                             0.1291E+04                             0.7151E+02
    2.260              0.4940E+03                             0.1289E+04                             0.7142E+02
